##  Star in a Box 
## https://lco.global/starinabox 
## Data for a 6 solar mass star
## Columns are:
## Time, Radius (R_sun), Luminosity (L_sun), Surface Temperature (K), Mass (M_sun)
0.00000000000000E+00,2.92555603499877E+00,1.00795781982501E+03,1.90341688124071E+04,6.00000000000000E+00
6.83741096298826E-01,2.93959380515658E+00,1.00799665332203E+03,1.89888493206219E+04,5.99991149963871E+00
1.36750472743468E+00,2.95370482715282E+00,1.00820990748347E+03,1.89444382264213E+04,5.99982321255443E+00
2.05129084028426E+00,2.96789537922798E+00,1.00859766824151E+03,1.89009108483009E+04,5.99973510057792E+00
2.73509939143609E+00,2.98217185504807E+00,1.00916011231143E+03,1.88582428028169E+04,5.99964712586169E+00
3.41893034711061E+00,2.99654076535952E+00,1.00989750729115E+03,1.88164099946211E+04,5.99955925083051E+00
4.10278368309290E+00,3.01100873978359E+00,1.01081021184002E+03,1.87753886068201E+04,5.99947143813268E+00
4.78665938467774E+00,3.02558252875490E+00,1.01189867593709E+03,1.87351550916488E+04,5.99938365059207E+00
5.47055744662685E+00,3.04026900560870E+00,1.01316344121875E+03,1.86956861614519E+04,5.99929585116069E+00
6.15447787313829E+00,3.05507516882241E+00,1.01460514139621E+03,1.86569587799618E+04,5.99920800287169E+00
6.83842067782773E+00,3.07000814441727E+00,1.01622450275302E+03,1.86189501538636E+04,5.99912006879287E+00
7.52238588372158E+00,3.08507518852707E+00,1.01802234472313E+03,1.85816377246335E+04,5.99903201198034E+00
8.20637352326197E+00,3.10028369014207E+00,1.01999958054996E+03,1.85449991606368E+04,5.99894379543240E+00
8.89038363832346E+00,3.11564117403763E+00,1.02215721802719E+03,1.85090123494659E+04,5.99885538204357E+00
9.57441628024144E+00,3.13115530389889E+00,1.02449636032199E+03,1.84736553904973E+04,5.99876673455853E+00
1.02584715098523E+01,3.14683388565513E+00,1.02701820688148E+03,1.84389065876402E+04,5.99867781552599E+00
1.09425493975457E+01,3.16268487104014E+00,1.02972405442331E+03,1.84047444422445E+04,5.99858858725236E+00
1.16266500233277E+01,3.17871636139780E+00,1.03261529801157E+03,1.83711476461279E+04,5.99849901175515E+00
1.23107734768971E+01,3.19493661175628E+00,1.03569343221891E+03,1.83380950746762E+04,5.99840905071595E+00
1.29949198577331E+01,3.21135403519814E+00,1.03896005237635E+03,1.83055657799600E+04,5.99831866543295E+00
1.36790892751947E+01,3.22797720755907E+00,1.04241685591191E+03,1.82735389838016E+04,5.99822781677291E+00
1.43632818486336E+01,3.24481487249332E+00,1.04606564377959E+03,1.82419940707144E+04,5.99813646512244E+00
1.50474977075180E+01,3.26187594695103E+00,1.04990832198034E+03,1.82109105806255E+04,5.99804457033851E+00
1.57317369915708E+01,3.27916952711982E+00,1.05394690317643E+03,1.81802682012748E+04,5.99795209169812E+00
1.64159998509191E+01,3.29670489489162E+00,1.05818350840126E+03,1.81500467601724E+04,5.99785898784702E+00
1.71002864462580E+01,3.31449152492559E+00,1.06262036886626E+03,1.81202262159759E+04,5.99776521674736E+00
1.77845969490274E+01,3.33253909238857E+00,1.06725982786701E+03,1.80907866491309E+04,5.99767073562418E+00
1.84689315416023E+01,3.35085748146678E+00,1.07210434279061E+03,1.80617082515996E+04,5.99757550091069E+00
1.91532904174975E+01,3.36945679475621E+00,1.07715648722654E+03,1.80329713154768E+04,5.99747946819213E+00
1.98376737815866E+01,3.38834736365417E+00,1.08241895318336E+03,1.80045562202721E+04,5.99738259214822E+00
2.05220818503359E+01,3.40753975989153E+00,1.08789455341372E+03,1.79764434186088E+04,5.99728482649403E+00
2.12065148520534E+01,3.42704480836392E+00,1.09358622385017E+03,1.79486134200647E+04,5.99718612391915E+00
2.18909730271534E+01,3.44687360144095E+00,1.09949702615469E+03,1.79210467728486E+04,5.99708643602512E+00
2.25754566284370E+01,3.46703751495587E+00,1.10563015038457E+03,1.78937240429753E+04,5.99698571326099E+00
2.32599659213899E+01,3.48754822610327E+00,1.11198891777775E+03,1.78666257905709E+04,5.99688390485678E+00
2.39445011844967E+01,3.50841773350096E+00,1.11857678366075E+03,1.78397325429017E+04,5.99678095875500E+00
2.46290627095729E+01,3.52965837970313E+00,1.12539734048237E+03,1.78130247636841E+04,5.99667682153979E+00
2.53136508021155E+01,3.55128287648642E+00,1.13245432097665E+03,1.77864828181955E+04,5.99657143836389E+00
2.59982657816721E+01,3.57330433326821E+00,1.13975160145862E+03,1.77600869336614E+04,5.99646475287303E+00
2.66829079822297E+01,3.59573628905822E+00,1.14729320525661E+03,1.77338171543542E+04,5.99635670712795E+00
2.73675777526234E+01,3.61859274839049E+00,1.15508330628487E+03,1.77076532907923E+04,5.99624724152366E+00
2.80522754569666E+01,3.64188822173310E+00,1.16312623276071E+03,1.76815748623813E+04,5.99613629470605E+00
2.87370014751015E+01,3.66563777092888E+00,1.17142647107033E+03,1.76555610327910E+04,5.99602380348563E+00
2.94217562030735E+01,3.68985706028127E+00,1.17998866978758E+03,1.76295905373113E+04,5.99590970274840E+00
3.01065400536272E+01,3.71456241396693E+00,1.18881764385055E+03,1.76036416013776E+04,5.99579392536376E+00
3.07913534567272E+01,3.73977088053078E+00,1.19791837890044E+03,1.75776918494032E+04,5.99567640208931E+00
3.14761968601029E+01,3.76550030530098E+00,1.20729603578783E+03,1.75517182030015E+04,5.99555706147263E+00
3.21610707298194E+01,3.79176941165088E+00,1.21695595525162E+03,1.75256967676242E+04,5.99543582974991E+00
3.28459755508740E+01,3.81859789213496E+00,1.22690366277585E+03,1.74996027065878E+04,5.99531263074143E+00
3.35309118278202E+01,3.84600651063463E+00,1.23714487363010E+03,1.74734101013981E+04,5.99518738574395E+00
3.42158800854197E+01,3.87401721677160E+00,1.24768549809946E+03,1.74470917972336E+04,5.99506001342000E+00
3.49008808693229E+01,3.90265327398046E+00,1.25853164690995E+03,1.74206192323837E+04,5.99493042968408E+00
3.55859147467788E+01,3.93193940278086E+00,1.26968963685599E+03,1.73939622503895E+04,5.99479854758611E+00
3.62709823073760E+01,3.96190194095531E+00,1.28116599663641E+03,1.73670888935763E+04,5.99466427719197E+00
3.69560841638140E+01,3.99256902252251E+00,1.29296747290611E+03,1.73399651766199E+04,5.99452752546157E+00
3.76412209527065E+01,4.02397077760166E+00,1.30510103655049E+03,1.73125548387399E+04,5.99438819612467E+00
3.83263933354174E+01,4.05613955549285E+00,1.31757388919043E+03,1.72848190730709E+04,5.99424618955467E+00
3.90116019989292E+01,4.08911017355641E+00,1.33039346992564E+03,1.72567162317311E+04,5.99410140264097E+00
3.96968476567452E+01,4.12292019476367E+00,1.34356746232486E+03,1.72282015050742E+04,5.99395372866024E+00
4.03821310498257E+01,4.15761023711841E+00,1.35710380167166E+03,1.71992265736007E+04,5.99380305714737E+00
4.10674529475567E+01,4.19322431851788E+00,1.37101068247504E+03,1.71697392309969E+04,5.99364927376670E+00
4.17528141487544E+01,4.22981024104158E+00,1.38529656625469E+03,1.71396829767812E+04,5.99349226018451E+00
4.24382154827016E+01,4.26742001913359E+00,1.39997018961111E+03,1.71089965770724E+04,5.99333189394372E+00
4.31236578102178E+01,4.30611035668929E+00,1.41504057259149E+03,1.70776135920432E+04,5.99316804834210E+00
4.38091420247622E+01,4.34594317868272E+00,1.43051702736291E+03,1.70454618687071E+04,5.99300059231529E+00
4.44946690535662E+01,4.38698622368845E+00,1.44640916720517E+03,1.70124629977986E+04,5.99282939032646E+00
4.51802398587973E+01,4.42931370448159E+00,1.46272691583618E+03,1.69785317336610E+04,5.99265430226422E+00
4.58658554387488E+01,4.47300704485748E+00,1.47948051708409E+03,1.69435753762519E+04,5.99247518335127E+00
4.65515168290555E+01,4.51815570192705E+00,1.49668054492085E+03,1.69074931146305E+04,5.99229188406609E+00
4.72372251039299E+01,4.56485808443949E+00,1.51433791387355E+03,1.68701753316052E+04,5.99210425008065E+00
4.79229813774169E+01,4.61322257919923E+00,1.53246388983051E+03,1.68315028696045E+04,5.99191212221738E+00
4.86087868046605E+01,4.66336869941817E+00,1.55107010126106E+03,1.67913462583109E+04,5.99171533642914E+00
4.92946425831777E+01,4.71542837092946E+00,1.57016855086913E+03,1.67495649051627E+04,5.99151372380641E+00
4.99805499541324E+01,4.76954737464568E+00,1.58977162770255E+03,1.67060062505133E+04,5.99130711061648E+00
5.06665102036013E+01,4.82588696654729E+00,1.60989211974209E+03,1.66605048900438E+04,5.99109531838004E+00
5.13525246638221E+01,4.88462569992611E+00,1.63054322699630E+03,1.66128816679847E+04,5.99087816399124E+00
5.20385947144131E+01,4.94596147869410E+00,1.65173857513067E+03,1.65629427458181E+04,5.99065545988791E+00
5.27247217835518E+01,5.01011387543316E+00,1.67349222966257E+03,1.65104786524406E+04,5.99042701427966E+00
5.34109073490969E+01,5.07732675367218E+00,1.69581871075627E+03,1.64552633232807E+04,5.99019263144214E+00
5.40971529396379E+01,5.14787124083435E+00,1.71873300865609E+03,1.63970531376068E+04,5.98995211208691E+00
5.47834601354519E+01,5.22204910664853E+00,1.74225059979942E+03,1.63355859652646E+04,5.98970525381715E+00
5.54698305693464E+01,5.30019661187149E+00,1.76638746365574E+03,1.62705802363565E+04,5.98945185168068E+00
5.61562659273632E+01,5.38268890430094E+00,1.79116010034269E+03,1.62017340499583E+04,5.98919169883257E+00
5.68427679493140E+01,5.46994505374579E+00,1.81658554907560E+03,1.61287243408686E+04,5.98892458732103E+00
5.75293384291189E+01,5.56243383544926E+00,1.84268140751268E+03,1.60512061266321E+04,5.98865030901113E+00
5.82159792149084E+01,5.66068039316861E+00,1.86946585206486E+03,1.59688118606770E+04,5.98836865666232E+00
5.89026922088532E+01,5.76527393963050E+00,1.89695765924631E+03,1.58811509213681E+04,5.98807942517646E+00
5.95894793666750E+01,5.87687668457181E+00,1.92517622814972E+03,1.57878092710984E+04,5.98778241303447E+00
6.02763426967918E+01,5.99623422052338E+00,1.95414160413865E+03,1.56883493242064E+04,5.98747742394041E+00
6.09632842590415E+01,6.12418764578380E+00,1.98387450385877E+03,1.55823100674811E+04,5.98716426869247E+00
6.16503061629284E+01,6.26168776506681E+00,2.01439634167937E+03,1.54692074822503E+04,5.98684276730124E+00
6.23374105653260E+01,6.40981178417921E+00,2.04572925768706E+03,1.53485353224578E+04,5.98651275137524E+00
6.30245996675672E+01,6.56978300977474E+00,2.07789614736417E+03,1.52197663086111E+04,5.98617406679398E+00
6.37118757118485E+01,6.74299418388683E+00,2.11092069309563E+03,1.50823538028672E+04,5.98582657668764E+00
6.43992409768670E+01,6.93103523227304E+00,2.14482739765909E+03,1.49357340356275E+04,5.98547016474128E+00
6.50866977726062E+01,7.13572639437102E+00,2.17964161986403E+03,1.47793289585749E+04,5.98510473883893E+00
6.57742484341824E+01,7.35915794238635E+00,2.21538961251583E+03,1.46125498027934E+04,5.98473023505978E+00
6.64618953146577E+01,7.60373800291713E+00,2.25209856289006E+03,1.44348014230783E+04,5.98434662203407E+00
6.71496407767282E+01,7.87225038676889E+00,2.28979663590960E+03,1.42454875103083E+04,5.98395390566040E+00
6.78374871831892E+01,8.16792483819758E+00,2.32851302022232E+03,1.40440167522672E+04,5.98355213417851E+00
6.85254368860861E+01,6.81563172798815E+00,2.94434145825596E+03,1.63031499509265E+04,5.98314140358220E+00
6.85316803702635E+01,7.22320193904083E+00,2.90342708347366E+03,1.57812133107477E+04,5.98313405840797E+00
6.85379238768993E+01,7.65514424295886E+00,2.86308207783525E+03,1.52759876267194E+04,5.98312718054779E+00
6.85441674045646E+01,8.11291608030405E+00,2.82329845452636E+03,1.47869377052172E+04,5.98312074026766E+00
6.85504109519215E+01,8.59806204558018E+00,2.78406834363044E+03,1.43135455095318E+04,5.98311470972577E+00
6.85566545177175E+01,9.11221909898130E+00,2.74538399004790E+03,1.38553096081322E+04,5.98310906285213E+00
6.85628981007794E+01,9.65712208979829E+00,2.70723775147917E+03,1.34117446408505E+04,5.98310377523569E+00
6.85691417000088E+01,1.02346096101326E+01,2.66962209646757E+03,1.29823808023801E+04,5.98309882401879E+00
6.85753853143772E+01,1.08466301986362E+01,2.63252960250079E+03,1.25667633425351E+04,5.98309418779830E+00
6.85816289429216E+01,1.14952489152578E+01,2.59595295416464E+03,1.21644520826747E+04,5.98308984653299E+00
6.85878725847400E+01,1.21826624108055E+01,2.55989131459607E+03,1.17750243614436E+04,5.98308984653299E+00
6.85941162265584E+01,1.29111830904903E+01,2.52433062472549E+03,1.13980636176836E+04,5.98308984653299E+00
6.86003598683769E+01,1.36832691553784E+01,2.48926392561806E+03,1.10331707387513E+04,5.98308984653299E+00
6.86066035101953E+01,1.45015258064488E+01,2.45468435500887E+03,1.06799593890297E+04,5.98308984653299E+00
6.86128471520137E+01,1.53687140351573E+01,2.42058514596006E+03,1.03380556008900E+04,5.98308984653299E+00
6.86190907938321E+01,1.62877599396752E+01,2.38695962553658E+03,1.00070973787479E+04,5.98308984653299E+00
6.86253344356506E+01,1.72617645982357E+01,2.35380121350037E+03,9.68673431579549E+03,5.98308984653299E+00
6.86315780774690E+01,1.82940145329061E+01,2.32110342102261E+03,9.37662722300305E+03,5.98308984653299E+00
6.86378217192874E+01,1.93879927990900E+01,2.28885984941396E+03,9.07644776999766E+03,5.98308984653299E+00
6.86440653611059E+01,2.05473907381800E+01,2.25706418887238E+03,8.78587813743875E+03,5.98308984653299E+00
6.86503090029243E+01,2.17761204330167E+01,2.22571021724833E+03,8.50461068052223E+03,5.98308984653299E+00
6.86565526447427E+01,2.30783279081815E+01,2.19479179882718E+03,8.23234760325708E+03,5.98308984653299E+00
6.86627962865612E+01,2.44584071196636E+01,2.16430288312847E+03,7.96880064316961E+03,5.98308984653299E+00
6.86690399283796E+01,2.59210147811071E+01,2.13423750372189E+03,7.71369076610131E+03,5.98308984653299E+00
6.86752835701980E+01,2.74710860766642E+01,2.10458977705971E+03,7.46674787077744E+03,5.98308984653299E+00
6.86815272120164E+01,2.91138513134732E+01,2.07535390132542E+03,7.22771050283339E+03,5.98308984653299E+00
6.86877708538349E+01,3.08548535699522E+01,2.04652415529834E+03,6.99632557799611E+03,5.98308984653299E+00
6.86940144956533E+01,3.26999673994562E+01,2.01809489723404E+03,6.77234811412741E+03,5.98308984653299E+00
6.87002581374717E+01,3.46554186524100E+01,1.99006056376029E+03,6.55554097184563E+03,5.98308984653299E+00
6.87065017792902E+01,3.67278054837993E+01,1.96241566878836E+03,6.34567460345088E+03,5.98308984653299E+00
6.87127454211086E+01,3.89241206169065E+01,1.93515480243945E+03,6.14252680988807E+03,5.98308984653299E+00
6.87189890629270E+01,4.12517749384126E+01,1.90827262998597E+03,5.94588250549046E+03,5.98308984653299E+00
6.87252327047454E+01,4.37186225044817E+01,1.88176389080766E+03,5.75553349025459E+03,5.98308984653299E+00
6.87314763465639E+01,4.63329870422037E+01,1.85562339736205E+03,5.57127822940554E+03,5.98308984653299E+00
6.87377199883823E+01,4.91036900358181E+01,1.82984603416935E+03,5.39292164001900E+03,5.98308984653299E+00
6.87439636302007E+01,5.20400804924885E+01,1.80442675681137E+03,5.22027488447449E+03,5.98308984653299E+00
6.87502072720192E+01,5.51520664880630E+01,1.77936059094437E+03,5.05315517052073E+03,5.98308984653299E+00
6.87564509138376E+01,5.84501485992662E+01,1.75464263132565E+03,4.89138555774173E+03,5.98308984653299E+00
6.87626945556560E+01,6.19454553351276E+01,1.73026804085358E+03,4.73479477021855E+03,5.98308984653299E+00
6.87751818392928E+01,6.95756239252764E+01,1.68252995398228E+03,4.43649180751003E+03,5.98308984653299E+00
6.87787202514341E+01,7.08163283352274E+01,1.72556057685920E+03,4.42530682075045E+03,5.98308292339789E+00
6.87821878953326E+01,7.20799236259007E+01,1.76969170585227E+03,4.41412657580255E+03,5.98307584111800E+00
6.87855861863531E+01,7.33668404880293E+01,1.81495148635290E+03,4.40295132509248E+03,5.98306859595780E+00
6.87889165115531E+01,7.46775178045966E+01,1.86136878356897E+03,4.39178131878014E+03,5.98306118409282E+00
6.87921802302492E+01,7.60124028076539E+01,1.90897320093524E+03,4.38061680475810E+03,5.98305360160754E+00
6.87953786745714E+01,7.73719512380898E+01,1.95779509899245E+03,4.36945802865141E+03,5.98304584449318E+00
6.87985131500071E+01,7.87566275085124E+01,2.00786561475078E+03,4.35830523381734E+03,5.98303790864545E+00
6.88015849359341E+01,8.01669048692529E+01,2.05921668154827E+03,4.34715866134560E+03,5.98302978986224E+00
6.88045952861425E+01,8.16032655775395E+01,2.11188104941631E+03,4.33601855005899E+03,5.98302148384131E+00
6.88075454293468E+01,8.30662010699396E+01,2.16589230596676E+03,4.32488513651429E+03,5.98301298617785E+00
6.88104365696870E+01,8.45562121381124E+01,2.22128489781293E+03,4.31375865500343E+03,5.98300429236203E+00
6.88132698872204E+01,8.60738091079442E+01,2.27809415253875E+03,4.30263933755506E+03,5.98299539777644E+00
6.88160465384031E+01,8.76195120221274E+01,2.33635630122973E+03,4.29152741393630E+03,5.98298629769356E+00
6.88187676565622E+01,8.91938508262225E+01,2.39610850157914E+03,4.28042311165510E+03,5.98297698727304E+00
6.88214343523581E+01,9.07973655583392E+01,2.45738886158678E+03,4.26932665596249E+03,5.98296746155903E+00
6.88240477142380E+01,9.24306065424236E+01,2.52023646386228E+03,4.25823826985551E+03,5.98295771547741E+00
6.88266088088804E+01,9.40941345853142E+01,2.58469139055189E+03,4.24715817408001E+03,5.98294774383289E+00
6.88291186816299E+01,9.57885211775177E+01,2.65079474890028E+03,4.23608658713423E+03,5.98293754130614E+00
6.88315783569245E+01,9.75143486978961E+01,2.71858869746788E+03,4.22502372527226E+03,5.98292710245078E+00
6.88339888387131E+01,9.92722106222886E+01,2.78811647301870E+03,4.21396980250793E+03,5.98291642169032E+00
6.88363511108660E+01,1.01062711736108E+02,2.85942241809441E+03,4.20292503061901E+03,5.98290549331506E+00
6.88386661375758E+01,1.02886468351077E+02,2.93255200929553E+03,4.19188961915151E+03,5.98289431147880E+00
6.88409348637514E+01,1.04744108526091E+02,3.00755188628430E+03,4.18086377542446E+03,5.98288287019564E+00
6.88431582154035E+01,1.06636272292352E+02,3.08446988153007E+03,4.16984770453474E+03,5.98287116333657E+00
6.88440439981565E+01,1.62038078233059E+02,5.54629165731720E+03,3.91714521189116E+03,5.98286629362703E+00
6.90261407885881E+01,1.47862315999621E+02,4.87777866993128E+03,3.97104042227558E+03,5.97656786514755E+00
6.92082375790196E+01,1.36303185582636E+02,4.35055019151751E+03,4.01939400454464E+03,5.97158148033086E+00
6.93903343694511E+01,1.26851919310032E+02,3.93201743362469E+03,4.06240178987635E+03,5.96753113106545E+00
6.95724311598826E+01,1.19099796817602E+02,3.59817511615840E+03,4.10055462023838E+03,5.96600911206102E+00
6.97545279503141E+01,1.12757697060448E+02,3.33112721163767E+03,4.13382648467403E+03,5.96470110016082E+00
6.99366247407456E+01,1.07581578154310E+02,3.11737216642658E+03,4.16251436674358E+03,5.96355439696926E+00
7.01187215311772E+01,1.03377041777754E+02,2.94659910940868E+03,4.18693048738470E+03,5.96253034105433E+00
7.03008183216087E+01,9.99873689394602E+01,2.81083187034506E+03,4.20739885588277E+03,5.96160005428866E+00
7.04829151120402E+01,9.72844901257277E+01,2.70381238228660E+03,4.22425252283138E+03,5.96074159547540E+00
7.06650119024717E+01,9.51620965967307E+01,2.62055063282384E+03,4.23783140895037E+03,5.95993802835994E+00
7.08471086929032E+01,9.35303286207170E+01,2.55699176206498E+03,4.24848060134173E+03,5.95917609479742E+00
7.10292054833347E+01,9.23116381506267E+01,2.50976653854635E+03,4.25654902453316E+03,5.95844529593751E+00
7.12113022737662E+01,9.14375388785138E+01,2.47600202005537E+03,4.26238840862591E+03,5.95773725377894E+00
7.13933990641978E+01,9.08460399888309E+01,2.45317646819928E+03,4.26635249123766E+03,5.95704526911783E+00
7.15754958546293E+01,9.04796209180003E+01,2.43900765118360E+03,4.26879640349881E+03,5.95636401964087E+00
7.17575926450608E+01,9.02836495253631E+01,2.43136725812960E+03,4.27007620276346E+03,5.95568935959008E+00
7.19396894354923E+01,9.02051796362606E+01,2.42821672212846E+03,4.27054852557345E+03,5.95501819362712E+00
7.21217862259238E+01,9.01920887662470E+01,2.42756160005627E+03,4.27057034347194E+03,5.95434840445905E+00
7.23038830163553E+01,8.48131881226577E+01,2.53633761635075E+03,4.45243521390380E+03,5.95367881786129E+00
7.24859798067869E+01,7.88280221435756E+01,2.62203701268889E+03,4.65690015893397E+03,5.95302087627070E+00
7.26680765972184E+01,7.40608309685068E+01,2.69354916841313E+03,4.83687065790386E+03,5.95238863282851E+00
