##  Star in a Box 
## https://lco.global/starinabox 
## Data for a 15 solar mass star
## Columns are:
## Time, Radius (R_sun), Luminosity (L_sun), Surface Temperature (K), Mass (M_sun)
0.00000000000000E+00,5.02787028319802E+00,1.91614809681088E+04,3.03174572090620E+04,1.50000000000000E+01
1.25996405463285E-01,5.05338752312429E+00,1.91581273901690E+04,3.02394926086411E+04,1.49985902661382E+01
2.52009748456854E-01,5.07904313244040E+00,1.91584698277380E+04,3.01631568081740E+04,1.49971748780508E+01
3.78040101850742E-01,5.10484844941568E+00,1.91625071961491E+04,3.00884068922339E+04,1.49957534703768E+01
5.04087542969151E-01,5.13081502829977E+00,1.91702405228927E+04,3.00152005099424E+04,1.49943256709773E+01
6.30152153677417E-01,5.15695464241716E+00,1.91816729461415E+04,2.99434958558009E+04,1.49928911006053E+01
7.56234020473123E-01,5.18327928751725E+00,1.91968097152133E+04,2.98732516511321E+04,1.49914493725648E+01
8.82333234581501E-01,5.20980118538810E+00,1.92156581929623E+04,2.98044271261150E+04,1.49900000923567E+01
1.00844989205531E+00,5.23653278774278E+00,1.92382278600958E+04,2.97369820023958E+04,1.49885428573124E+01
1.13458409387935E+00,5.26348678038822E+00,1.92645303214136E+04,2.96708764762563E+04,1.49870772562123E+01
1.26073594607979E+00,5.29067608768774E+00,1.92945793139694E+04,2.96060712023187E+04,1.49856028688912E+01
1.38690555983848E+00,5.31811387733049E+00,1.93283907171567E+04,2.95425272777616E+04,1.49841192658276E+01
1.51309305161252E+00,5.34581356542312E+00,1.93659825647220E+04,2.94802062270175E+04,1.49826260077177E+01
1.63929854325919E+00,5.37378882192226E+00,1.94073750587119E+04,2.94190699869184E+04,1.49811226450319E+01
1.76552216216654E+00,5.40205357642994E+00,1.94525905853616E+04,2.93590808922434E+04,1.49796087175553E+01
1.89176404138985E+00,5.43062202437885E+00,1.95016537329344E+04,2.93002016616191E+04,1.49780837539078E+01
2.01802431979416E+00,5.45950863363968E+00,1.95545913115234E+04,2.92423953837085E+04,1.49765472710467E+01
2.14430314220321E+00,5.48872815158933E+00,1.96114323748300E+04,2.91856255036116E+04,1.49749987737482E+01
2.27060065955493E+00,5.51829561268685E+00,1.96722082439325E+04,2.91298558093894E+04,1.49734377540674E+01
2.39691702906392E+00,5.54822634661245E+00,1.97369525330632E+04,2.90750504185999E+04,1.49718636907767E+01
2.52325241439111E+00,5.57853598703606E+00,1.98057011774127E+04,2.90211737647229E+04,1.49702760487799E+01
2.64960698582087E+00,5.60924048109346E+00,1.98784924629808E+04,2.89681905833199E+04,1.49686742785021E+01
2.77598092044602E+00,5.64035609966232E+00,1.99553670584956E+04,2.89160658977591E+04,1.49670578152531E+01
2.90237440236104E+00,5.67189944854600E+00,2.00363680494266E+04,2.88647650043028E+04,1.49654260785640E+01
3.02878762286379E+00,5.70388748069105E+00,2.01215409741133E+04,2.88142534563258E+04,1.49637784714940E+01
3.15522078066616E+00,5.73633750958473E+00,2.02109338620384E+04,2.87644970474030E+04,1.49621143799073E+01
3.28167408211408E+00,5.76926722400154E+00,2.03045972742717E+04,2.87154617929642E+04,1.49604331717180E+01
3.40814774141730E+00,5.80269470429357E+00,2.04025843461130E+04,2.86671139101781E+04,1.49587341961000E+01
3.53464198088937E+00,5.83663844044835E+00,2.05049508319656E+04,2.86194197956847E+04,1.49570167826620E+01
3.66115703119835E+00,5.87111735216969E+00,2.06117551524692E+04,2.85723460007465E+04,1.49552802405833E+01
3.78769313162869E+00,5.90615081127332E+00,2.07230584439237E+04,2.85258592033447E+04,1.49535238577101E+01
3.91425053035488E+00,5.94175866672851E+00,2.08389246100380E+04,2.84799261766887E+04,1.49517468996084E+01
4.04082948472744E+00,5.97796127272143E+00,2.09594203760331E+04,2.84345137535540E+04,1.49499486085710E+01
4.16743026157182E+00,6.01477952016516E+00,2.10846153451342E+04,2.83895887858022E+04,1.49481282025765E+01
4.29405313750089E+00,6.05223487213523E+00,2.12145820574835E+04,2.83451180983733E+04,1.49462848741960E+01
4.42069839924169E+00,6.09034940377021E+00,2.13493960515052E+04,2.83010684369718E+04,1.49444177894450E+01
4.54736634397724E+00,6.12914584724306E+00,2.14891359277543E+04,2.82574064085984E+04,1.49425260865757E+01
4.67405727970413E+00,6.16864764248213E+00,2.16338834152782E+04,2.82140984140024E+04,1.49406088748063E+01
4.80077152560676E+00,6.20887899440219E+00,2.17837234405211E+04,2.81711105710510E+04,1.49386652329820E+01
4.92750941244919E+00,6.24986493749450E+00,2.19387441987951E+04,2.81284086279299E+04,1.49366942081634E+01
5.05427128298550E+00,6.29163140872374E+00,2.20990372283416E+04,2.80859578650004E+04,1.49346948141359E+01
5.18105749238979E+00,6.33420532978778E+00,2.22646974870039E+04,2.80437229840527E+04,1.49326660298346E+01
5.30786840870693E+00,6.37761469991593E+00,2.24358234315249E+04,2.80016679835963E+04,1.49306067976767E+01
5.43470441332525E+00,6.42188870051267E+00,2.26125170994794E+04,2.79597560187351E+04,1.49285160217959E+01
5.56156590147259E+00,6.46705781309912E+00,2.27948841938467E+04,2.79179492440743E+04,1.49263925661679E+01
5.68845328273709E+00,6.51315395216449E+00,2.29830341702170E+04,2.78762086380027E+04,1.49242352526197E+01
5.81536698161427E+00,6.56021061471611E+00,2.31770803266205E+04,2.78344938065908E+04,1.49220428587107E+01
5.94230743808226E+00,6.60826304851159E+00,2.33771398959548E+04,2.77927627652369E+04,1.49198141154753E+01
6.06927510820682E+00,6.65734844117213E+00,2.35833341409749E+04,2.77509716960886E+04,1.49175477050133E+01
6.19627046477834E+00,6.70750613261425E+00,2.37957884517955E+04,2.77090746791549E+04,1.49152422579140E+01
6.32329399798310E+00,6.75877785350141E+00,2.40146324458373E+04,2.76670233949213E+04,1.49128963504978E+01
6.45034621611106E+00,6.81120799271017E+00,2.42400000701320E+04,2.76247667961715E+04,1.49105085018569E+01
6.57742764630298E+00,6.86484389713164E+00,2.44720297058730E+04,2.75822507466184E+04,1.49080771706762E+01
6.70453883533986E+00,6.91973620749203E+00,2.47108642750778E+04,2.75394176238476E+04,1.49056007518098E+01
6.83168035047790E+00,6.97593923428221E+00,2.49566513491927E+04,2.74962058839876E+04,1.49030775725898E+01
6.95885278033253E+00,7.03351137834025E+00,2.52095432594358E+04,2.74525495854369E+04,1.49005058888377E+01
7.08605673581562E+00,7.09251560114092E+00,2.54696972086349E+04,2.74083778689103E+04,1.48978838805465E+01
7.21329285113021E+00,7.15301995042062E+00,2.57372753842664E+04,2.73636143910081E+04,1.48952096471989E+01
7.34056178482754E+00,7.21509814741433E+00,2.60124450723456E+04,2.73181767084822E+04,1.48924812026791E+01
7.46786422093199E+00,7.27883024271632E+00,2.62953787717584E+04,2.72719756103549E+04,1.48896964697346E+01
7.59520087013988E+00,7.34430334861105E+00,2.65862543085453E+04,2.72249143950709E+04,1.48868532739362E+01
7.72257247109871E+00,7.41161245667342E+00,2.68852549495671E+04,2.71768880899117E+04,1.48839493370782E+01
7.84997979177463E+00,7.48086135052728E+00,2.71925695148793E+04,2.71277826100023E+04,1.48809822699535E+01
7.97742363091618E+00,7.55216362490311E+00,2.75083924880308E+04,2.70774738543924E+04,1.48779495644313E+01
8.10490481962388E+00,7.62564382357788E+00,2.78329241233669E+04,2.70258267369018E+04,1.48748485847521E+01
8.23242422303602E+00,7.70143871044837E+00,2.81663705492644E+04,2.69726941497169E+04,1.48716765579485E+01
8.35998274214240E+00,7.77969868992430E+00,2.85089438660493E+04,2.69179158580934E+04,1.48684305632821E+01
8.48758131573922E+00,7.86058939508043E+00,2.88608622371390E+04,2.68613173250107E+04,1.48651075205786E+01
8.61522092253991E+00,7.94429346463803E+00,2.92223499717134E+04,2.68027084652205E+04,1.48617041773219E+01
8.74290258345845E+00,8.03101253292852E+00,2.95936375969386E+04,2.67418823288864E+04,1.48582170943514E+01
8.87062736408413E+00,8.12096946061465E+00,2.99749619174453E+04,2.66786137159204E+04,1.48546426299867E+01
8.99839637736868E+00,8.21441083821426E+00,3.03665660593848E+04,2.66126577232338E+04,1.48509769223738E+01
9.12621078654988E+00,8.31160979951909E+00,3.07686994959448E+04,2.65437482284436E+04,1.48472158698261E+01
9.25407180833861E+00,8.41286918798388E+00,3.11816180506952E+04,2.64715963151643E+04,1.48433551088928E+01
9.38198071639986E+00,8.51852512627297E+00,3.16055838745303E+04,2.63958886468826E+04,1.48393899898540E+01
9.50993884516278E+00,8.62895104762834E+00,3.20408653912706E+04,2.63162857986164E+04,1.48353155492951E+01
9.63794759399892E+00,8.74456225785301E+00,3.24877372061568E+04,2.62324205581316E+04,1.48311264793622E+01
9.76600843181387E+00,8.86582110884261E+00,3.29464799705002E+04,2.61438962114729E+04,1.48268170932400E+01
9.89412290210356E+00,8.99324287918214E+00,3.34173801946003E+04,2.60502848310168E+04,1.48223812863206E+01
1.00222926285337E+01,9.12740247489436E+00,3.39007299996907E+04,2.59511255882045E+04,1.48178124924534E+01
1.01505193211095E+01,9.26894208465042E+00,3.43968267980680E+04,2.58459231176300E+04,1.48131036345645E+01
1.02788047830126E+01,9.41857994946360E+00,3.49059728886565E+04,2.57341459642646E+04,1.48082470688199E+01
1.04071509181934E+01,9.57712043812109E+00,3.54284749529984E+04,2.56152251513568E+04,1.48032345213748E+01
1.05355597398204E+01,9.74546565766690E+00,3.59646434339634E+04,2.54885529129757E+04,1.47980570165822E+01
1.06640333797048E+01,9.92462887476250E+00,3.65147917762438E+04,2.53534816422924E+04,1.47927047953518E+01
1.07925740988352E+01,1.01157500807822E+01,3.70792355038404E+04,2.52093231145285E+04,1.47871672221115E+01
1.09211842991804E+01,1.03201141036559E+01,3.76582911050941E+04,2.50553480520218E+04,1.47814326785579E+01
1.10498665369443E+01,1.05391717560692E+01,3.82522746902210E+04,2.48907861080262E+04,1.47754884420469E+01
1.11786235374850E+01,1.07666662676120E+01,3.87531651724028E+04,2.47066411045507E+04,1.47549542711382E+01
1.13076395200359E+01,1.10117135379956E+01,3.92641468837943E+04,2.45103281899173E+04,1.47339070762559E+01
1.14369221134692E+01,1.12763582699700E+01,3.97853747833529E+04,2.43009900732614E+04,1.47123402408366E+01
1.15664791242214E+01,1.15629300226435E+01,4.03170150272307E+04,2.40777378370198E+04,1.46902484714361E+01
1.16963185241518E+01,1.18740900078190E+01,4.08592472564571E+04,2.38396546381251E+04,1.46676280059345E+01
1.18264484355155E+01,1.22128870123135E+01,4.14122672253349E+04,2.35858004502007E+04,1.46444768392712E+01
1.19568771127173E+01,1.25828245102988E+01,4.19762898019589E+04,2.33152179763701E+04,1.46207949666811E+01
1.20876129204952E+01,1.29879415571249E+01,4.25515523720595E+04,2.30269398659186E+04,1.45965846440430E+01
1.22186643081687E+01,1.34329107337981E+01,4.31383186763545E+04,2.27199973687668E+04,1.45718506645260E+01
1.23500397795764E+01,1.39231572866670E+01,4.37368831095729E+04,2.23934305586219E+04,1.45466006501991E+01
1.24817478583255E+01,1.44650047437670E+01,4.43475755060904E+04,2.20463002477430E+04,1.45208453566664E+01
1.26137970479802E+01,1.50658537741565E+01,4.49707664324637E+04,2.16777017023258E+04,1.44945989880823E+01
1.26799964174064E+01,1.44693975513469E+01,4.70376918818119E+04,2.23698882033573E+04,1.44812392535911E+01
1.27462851266863E+01,1.21696093885433E+01,5.30649157164084E+04,2.51386000109905E+04,1.44659405151448E+01
1.27476415098779E+01,1.34018917420679E+01,5.35682939463545E+04,2.40116187180040E+04,1.44657846023434E+01
1.27489979232783E+01,1.47586116063257E+01,5.40734469206747E+04,2.29351085130720E+04,1.44653338683292E+01
1.27503544240171E+01,1.62525676798885E+01,5.45835636631958E+04,2.19069550701045E+04,1.44648956809943E+01
1.27517110096725E+01,1.78976358824539E+01,5.50986881167487E+04,2.09249783811463E+04,1.44644696869429E+01
1.27530676778903E+01,1.97090948321169E+01,5.56188647247570E+04,1.99870973569224E+04,1.44640555430000E+01
1.27544244263822E+01,2.17037676304198E+01,5.61441384338809E+04,1.90913252868975E+04,1.44636529158991E+01
1.27557812529237E+01,2.39001779788375E+01,5.66745546967500E+04,1.82357655117726E+04,1.44632614819807E+01
1.27571381553526E+01,2.63187220753523E+01,5.72101594747911E+04,1.74186072981513E+04,1.44628809269000E+01
1.27584951315668E+01,2.89818578861830E+01,5.77509992411455E+04,1.66381219056471E+04,1.44625109453457E+01
1.27598521795227E+01,3.19143135489465E+01,5.82971209836717E+04,1.58926588371925E+04,1.44621512407673E+01
1.27612092972341E+01,3.51433168411192E+01,5.88485722080373E+04,1.51806422637587E+04,1.44618015251114E+01
1.27625664827697E+01,3.86988478431246E+01,5.94054009408971E+04,1.45005676151471E+04,1.44614615185672E+01
1.27639237342521E+01,4.26139171405497E+01,5.99676557331485E+04,1.38509983289384E+04,1.44611309493196E+01
1.27652810498563E+01,4.69246387354330E+01,6.05350787298781E+04,1.32305788847739E+04,1.44607800857435E+01
1.27666384335246E+01,5.16708112513802E+01,6.11075893649957E+04,1.26380097274885E+04,1.44603962652973E+01
1.27679958916570E+01,5.68962801149388E+01,6.16852070919243E+04,1.20720453357103E+04,1.44599763969142E+01
1.27693534312552E+01,6.26492730381505E+01,6.22679489208035E+04,1.15314961849818E+04,1.44595171005963E+01
1.27707110599790E+01,6.89828306625818E+01,6.28558291640786E+04,1.10152262471301E+04,1.44590146806170E+01
1.27720687862080E+01,7.59552778661391E+01,6.34488591604381E+04,1.05221506021554E+04,1.44584650962811E+01
1.27734266191094E+01,8.36307391984816E+01,6.40470469754800E+04,1.00512331576105E+04,1.44578639300319E+01
1.27742028780352E+01,8.36099181193809E+01,6.40420654394567E+04,1.00522891164755E+04,1.44574880322128E+01
1.27815054717516E+01,8.47622125235056E+01,6.40873612247799E+04,9.98549256842855E+03,1.44539528723925E+01
1.27888080654679E+01,9.37819999299532E+01,6.41326890469942E+04,9.49484009409936E+03,1.44503753048011E+01
1.27906337138970E+01,9.85111747412496E+01,6.41440260109614E+04,9.26453960540546E+03,1.44494037566134E+01
1.27924593623261E+01,1.04760489024622E+02,6.41553649790017E+04,8.98435748364295E+03,1.44483925001064E+01
1.27942850107552E+01,1.12941019841002E+02,6.41667059514685E+04,8.65324741372514E+03,1.44473293651705E+01
1.27961106591843E+01,1.23607522223406E+02,6.41780489287147E+04,8.27183217555300E+03,1.44461992352907E+01
1.27970234833989E+01,1.30100645524732E+02,6.41837211692395E+04,8.06295126741394E+03,1.44455911918564E+01
1.27979363076134E+01,1.37522237096083E+02,6.41893939110914E+04,7.84254270109176E+03,1.44449573378222E+01
1.27988491318279E+01,1.46015926244169E+02,6.41950671543144E+04,7.61119481157902E+03,1.44442942828740E+01
1.27997619560425E+01,1.55752970758706E+02,6.42007408989525E+04,7.36960783561561E+03,1.44435981758157E+01
1.28006747802570E+01,1.66938444334748E+02,6.42064151450497E+04,7.11858970365333E+03,1.44428646261340E+01
1.28015876044716E+01,1.79818978866673E+02,6.42120898926498E+04,6.85905010233709E+03,1.44420886098818E+01
1.28025004286861E+01,1.94692498520223E+02,6.42177651417969E+04,6.59199281189325E+03,1.44412643563795E+01
1.28034132529007E+01,2.11920517433541E+02,6.42234408925346E+04,6.31850636284395E+03,1.44403852113610E+01
1.28043260771152E+01,2.31943753365302E+02,6.42291171449067E+04,6.03975309825685E+03,1.44394434710708E+01
1.28052389013298E+01,2.55302052279310E+02,6.42347938989569E+04,5.75695677011621E+03,1.44384301803854E+01
1.28061517255443E+01,2.82659947028259E+02,6.42404711547286E+04,5.47138884005936E+03,1.44373348861935E+01
1.28066081376516E+01,2.98088184145023E+02,6.42433099707725E+04,5.32797445527484E+03,1.44367401105365E+01
1.28070645497589E+01,3.14839146111450E+02,6.42461489122631E+04,5.18435759371105E+03,1.44361191424010E+01
1.28075209618661E+01,3.33047252575704E+02,6.42489879792056E+04,5.04070384998784E+03,1.44354700257724E+01
1.28079773739734E+01,3.52862802432787E+02,6.42518271716054E+04,4.89717888905467E+03,1.44347906324372E+01
1.28084337860807E+01,3.74454082976516E+02,6.42546664894678E+04,4.75394793162353E+03,1.44340786441848E+01
1.28088901981880E+01,3.98009788951157E+02,6.42575059327984E+04,4.61117523792421E+03,1.44333315329319E+01
1.28093466102952E+01,4.23741801343724E+02,6.42603455016022E+04,4.46902359230898E+03,1.44325465384995E+01
1.28098030224025E+01,4.51888384472043E+02,6.42631851958847E+04,4.32765379126838E+03,1.44317206437337E+01
1.28102594345098E+01,4.82717870288166E+02,6.42660250156512E+04,4.18722413743653E+03,1.44308505466182E+01
1.28107158466171E+01,5.16532911170066E+02,6.42688649609068E+04,4.04788994216253E+03,1.44299326289753E+01
1.28111722587243E+01,5.53675397229935E+02,6.42717050316568E+04,3.90980303920357E+03,1.44289629212898E+01
1.28257774461571E+01,6.14175059869688E+02,6.43626535919297E+04,3.71355563214471E+03,1.43961354599971E+01
1.28549878210226E+01,6.16626895013027E+02,6.45449369882328E+04,3.70878665178944E+03,1.43246281465529E+01
1.28841981958881E+01,6.19100503470213E+02,6.47277366348614E+04,3.70398794184575E+03,1.42526950095362E+01
1.29134085707536E+01,6.21596222249655E+02,6.49110539939072E+04,3.69915917629453E+03,1.41803330128793E+01
1.29426189456191E+01,6.24114394856518E+02,6.50948905316025E+04,3.69430002631365E+03,1.41075390925950E+01
1.29718293204847E+01,6.26655371391485E+02,6.52792477183326E+04,3.68941016040712E+03,1.40343101565480E+01
1.30010396953502E+01,6.29219508645814E+02,6.54641270286467E+04,3.68448924455219E+03,1.39606430842349E+01
1.30302500702157E+01,6.31807170191914E+02,6.56495299412702E+04,3.67953694236604E+03,1.38865347265741E+01
1.30594604450812E+01,6.34418726468534E+02,6.58354579391165E+04,3.67455291529418E+03,1.38119819057076E+01
1.30886708199467E+01,6.37054554859632E+02,6.60219125092988E+04,3.66953682282254E+03,1.37369814148149E+01
1.31178811948122E+01,6.39715039765750E+02,6.62088951431421E+04,3.66448832271575E+03,1.36615300179426E+01
1.31470915696777E+01,6.42400572666706E+02,6.63964073361950E+04,3.65940707128417E+03,1.35856244498496E+01
1.31763019445432E+01,6.45111552174177E+02,6.65844505882418E+04,3.65429272368250E+03,1.35092614158709E+01
1.32055123194088E+01,6.47848384072608E+02,6.67730264033143E+04,3.64914493424335E+03,1.34324375918026E+01
1.32347226942743E+01,6.50611481346680E+02,6.69621362897043E+04,3.64396335684894E+03,1.33551496238098E+01
1.32639330691398E+01,6.53401264193389E+02,6.71517817599751E+04,3.63874764534523E+03,1.32773941283598E+01
1.32931434440053E+01,6.56218160016465E+02,6.73419643309743E+04,3.63349745400237E+03,1.31991676921856E+01
1.33223538188708E+01,6.59062603400687E+02,6.75326855238452E+04,3.62821243802657E+03,1.31204668722798E+01
1.33515641937363E+01,6.61935036063260E+02,6.77239468640398E+04,3.62289225412842E+03,1.30412881959255E+01
1.33807745686018E+01,6.84682456065398E+02,7.07419809408253E+04,3.60124146325722E+03,1.29616281607667E+01
1.34099849434673E+01,6.87373112036196E+02,7.08757821475343E+04,3.59588450005007E+03,1.28752945522415E+01
1.34391953183328E+01,6.90064590885261E+02,7.10061865023060E+04,3.59051473327755E+03,1.27885758398980E+01
1.34684056931984E+01,6.92758570387414E+02,7.11334281194376E+04,3.58513091157062E+03,1.27014779008047E+01
1.34976160680639E+01,6.95456566116065E+02,7.12577158863154E+04,3.57973193323387E+03,1.26140061486586E+01
1.35268264429294E+01,6.98159954260618E+02,7.13792370823682E+04,3.57431682717794E+03,1.25261655854271E+01
1.35560368177949E+01,7.00869990212688E+02,7.14981603596064E+04,3.56888473764301E+03,1.24379608457773E+01
1.35852471926604E+01,7.03587823781865E+02,7.16146382168491E+04,3.56343491195394E+03,1.23493962355918E+01
1.36144575675259E+01,7.06314511695810E+02,7.17288090686630E+04,3.55796669073263E+03,1.22604757655956E+01
1.36436679423914E+01,7.09051027887407E+02,7.18407989870917E+04,3.55247950012911E+03,1.21712031809246E+01
1.36728783172569E+01,7.11798271957747E+02,7.19507231771082E+04,3.54697284573555E+03,1.20815819873021E+01
1.37020886921225E+01,7.14557076117471E+02,7.20586872337768E+04,3.54144630792474E+03,1.19916154743718E+01
1.37312990669880E+01,7.17328210842823E+02,7.21647882192335E+04,3.53589953841468E+03,1.19013067366387E+01
1.37605094418535E+01,7.20112389431340E+02,7.22691155899880E+04,3.53033225790720E+03,1.18106586923936E+01
1.37897198167190E+01,7.22910271601717E+02,7.23717519991392E+04,3.52474425468622E+03,1.17196741009363E+01
1.38189301915845E+01,7.25722466250149E+02,7.24727739934710E+04,3.51913538409061E+03,1.16283555783658E+01
